"Time (s)","Acceleration x (m/s^2)","Acceleration y (m/s^2)","Acceleration z (m/s^2)","Absolute acceleration (m/s^2)"
2.134189500E-2,1.939303428E-1,9.888052940E0,1.789665818E-1,9.891573635E0
2.630965600E-2,1.268926859E-1,9.911994934E0,1.789665818E-1,9.914422543E0
3.127741600E-2,6.464344263E-2,9.931148529E0,1.741781682E-1,9.932886183E0
3.624517600E-2,-7.182605099E-3,9.955090523E0,1.789665818E-1,9.956701660E0
4.121293700E-2,-6.464344263E-2,9.979032516E0,1.741781682E-1,9.980761833E0
4.618069700E-2,-1.412578970E-1,9.983820915E0,1.837549806E-1,9.986510890E0
5.114845800E-2,-2.035071403E-1,1.000776291E1,1.789665818E-1,1.001143160E1
5.611621800E-2,-2.705447972E-1,1.001255131E1,1.741781682E-1,1.001772011E1
6.108397800E-2,-3.232172430E-1,1.002691650E1,1.741781682E-1,1.003363653E1
6.605173900E-2,-3.758896589E-1,1.003649330E1,1.550245583E-1,1.004472615E1
7.101949900E-2,-4.285621047E-1,1.004128170E1,1.646013707E-1,1.005177085E1
7.598726000E-2,-4.572925270E-1,1.004607010E1,1.502361596E-1,1.005759473E1
8.095502000E-2,-5.147533417E-1,1.004128170E1,1.454477459E-1,1.005551909E1
8.592278100E-2,-5.482721925E-1,1.004607010E1,1.454477459E-1,1.006207145E1
9.089054100E-2,-5.674257874E-1,1.004607010E1,1.358709484E-1,1.006299942E1
9.585830100E-2,-5.961562395E-1,1.004607010E1,1.215057373E-1,1.006447665E1
1.008260620E-1,-6.200982332E-1,1.003649330E1,1.167173311E-1,1.005630859E1
1.057938220E-1,-6.344634295E-1,1.002691650E1,1.071405262E-1,1.004754087E1
1.107615830E-1,-6.488286853E-1,1.003170490E1,1.071405262E-1,1.005323635E1
1.157293430E-1,-6.488286853E-1,1.004128170E1,9.756372124E-2,1.006269524E1
1.206971030E-1,-6.488286853E-1,1.003649330E1,9.756372124E-2,1.005791704E1
1.256648640E-1,-6.296750307E-1,1.002212811E1,8.798690885E-2,1.004227485E1
1.306326240E-1,-6.153098345E-1,1.003170490E1,8.798690885E-2,1.005094280E1
1.356003850E-1,-6.057330370E-1,1.002691650E1,8.798690885E-2,1.004558156E1
1.405681450E-1,-5.865794420E-1,1.002691650E1,7.841010392E-2,1.004436549E1
1.455359060E-1,-5.530605912E-1,1.002212811E1,8.319851011E-2,1.003772134E1
1.505036660E-1,-5.243301988E-1,1.002212811E1,8.319851011E-2,1.003617935E1
1.554714260E-1,-4.812345505E-1,1.001733971E1,8.319851011E-2,1.002923743E1
1.604391870E-1,-4.237737060E-1,1.001255131E1,9.756372124E-2,1.002199015E1
1.654069470E-1,-3.758896589E-1,1.000776291E1,1.023521200E-1,1.001534260E1
1.703747080E-1,-3.375824392E-1,9.998186111E0,1.023521200E-1,1.000440720E1
1.753424680E-1,-2.849099934E-1,1.000297451E1,1.167173311E-1,1.000771181E1
1.803102280E-1,-2.178723514E-1,9.983820915E0,1.071405262E-1,9.986772628E0
1.852779890E-1,-1.556231081E-1,9.969455719E0,1.310825497E-1,9.971531904E0
1.902457490E-1,-9.816227108E-2,9.959878922E0,1.406593472E-1,9.961355782E0
1.952135100E-1,-4.548983276E-2,9.935936928E0,1.454477459E-1,9.937105565E0
2.001812700E-1,2.633621916E-2,9.907206535E0,1.693897694E-1,9.908689511E0
2.051490310E-1,8.858546615E-2,9.902418137E0,1.837549806E-1,9.904519081E0
2.101167910E-1,1.508347094E-1,9.878476143E0,1.837549806E-1,9.881336342E0
2.150845510E-1,2.226607651E-1,9.844957352E0,2.076970041E-1,9.849665026E0
2.200523120E-1,2.801215947E-1,9.821015358E0,2.172738016E-1,9.827411596E0
2.250200720E-1,3.280056417E-1,9.787496567E0,2.124854028E-1,9.795296156E0
2.299878330E-1,3.902548850E-1,9.768342972E0,2.412158251E-1,9.779110817E0
2.349555930E-1,4.429273009E-1,9.734824181E0,2.507926226E-1,9.748122043E0
2.399233530E-1,4.955997467E-1,9.710882187E0,2.651578486E-1,9.727135274E0
2.448911140E-1,5.434837937E-1,9.677363396E0,2.890998423E-1,9.696922999E0
2.498588740E-1,5.865794420E-1,9.648633003E0,2.890998423E-1,9.670768997E0
2.548266350E-1,6.200982332E-1,9.619902611E0,2.938882709E-1,9.644346446E0
2.597943950E-1,6.536170840E-1,9.595960617E0,3.130418658E-1,9.623287934E0
2.647621560E-1,6.871358752E-1,9.572018623E0,3.178302646E-1,9.601911909E0
2.697299160E-1,6.871358752E-1,9.562441826E0,3.226186931E-1,9.592524809E0
2.746976760E-1,7.206547260E-1,9.543288231E0,3.178302646E-1,9.575735458E0
2.796654370E-1,7.254431248E-1,9.533711433E0,3.274070919E-1,9.566876022E0
2.846331970E-1,7.206547260E-1,9.524134636E0,3.178302646E-1,9.556646895E0
2.896009580E-1,7.206547260E-1,9.519346237E0,3.274070919E-1,9.552198251E0
2.945687180E-1,7.206547260E-1,9.514557838E0,3.178302646E-1,9.547102711E0
2.995364780E-1,7.062895298E-1,9.519346237E0,3.130418658E-1,9.550643585E0
3.045042390E-1,6.919242740E-1,9.528923035E0,3.130418658E-1,9.559138487E0
3.094719990E-1,6.727706790E-1,9.548076630E0,3.130418658E-1,9.576867072E0
3.144397600E-1,6.488286853E-1,9.567230225E0,2.986766696E-1,9.593856398E0
3.194075200E-1,6.057330370E-1,9.581595421E0,2.890998423E-1,9.605074807E0
3.243752810E-1,5.626373887E-1,9.600749016E0,2.795230448E-1,9.621282432E0
3.293430410E-1,5.243301988E-1,9.624691010E0,2.699462473E-1,9.642741838E0
3.343108010E-1,4.764461517E-1,9.648633003E0,2.603694201E-1,9.663897351E0
3.392785620E-1,4.333505034E-1,9.672574997E0,2.364274114E-1,9.685163791E0
3.442463220E-1,3.902548850E-1,9.701305389E0,2.268506140E-1,9.711801395E0
3.492140830E-1,3.232172430E-1,9.730035782E0,2.172738016E-1,9.737826945E0
3.541818430E-1,2.753331959E-1,9.753977776E0,1.885433793E-1,9.759684391E0
3.591496030E-1,2.082955539E-1,9.787496567E0,1.693897694E-1,9.791178120E0
3.641173640E-1,1.508347094E-1,9.806650162E0,1.550245583E-1,9.809035178E0
3.690851240E-1,8.379705995E-2,9.830592155E0,1.406593472E-1,9.831955509E0
3.740528850E-1,2.633621916E-2,9.840168953E0,1.215057373E-1,9.840954337E0
3.790206450E-1,-4.070143029E-2,9.859322548E0,1.119289324E-1,9.860041876E0
3.839884060E-1,-1.029506698E-1,9.873687744E0,8.319851011E-2,9.874574953E0
3.889561660E-1,-1.604115069E-1,9.883264542E0,6.404489279E-2,9.884773725E0
3.939239260E-1,-2.226607651E-1,9.902418137E0,4.010287672E-2,9.905002323E0
3.988916870E-1,-2.753331959E-1,9.902418137E0,4.489128292E-2,9.906346882E0
4.038594470E-1,-3.184288144E-1,9.921571732E0,2.573766746E-2,9.926713704E0
4.088272080E-1,-3.758896589E-1,9.926360130E0,6.584054790E-3,9.933476824E0
4.137949680E-1,-4.189853072E-1,9.926360130E0,-2.992752008E-3,9.935199197E0
4.187627280E-1,-4.716577232E-1,9.926360130E0,-1.735796221E-2,9.937574540E0
4.237304890E-1,-5.051765442E-1,9.931148529E0,-3.172317147E-2,9.944039461E0
4.286982490E-1,-5.339069963E-1,9.931148529E0,-3.651157767E-2,9.945556841E0
4.336660100E-1,-5.578489900E-1,9.931148529E0,-5.087678507E-2,9.946933952E0
4.386337700E-1,-5.913678408E-1,9.931148529E0,-5.087678507E-2,9.948870060E0
4.436015310E-1,-6.153098345E-1,9.916783333E0,-5.087678507E-2,9.935984416E0
4.485692910E-1,-6.153098345E-1,9.926360130E0,-5.566519126E-2,9.945568372E0
4.535370510E-1,-6.296750307E-1,9.921571732E0,-7.003039867E-2,9.941779545E0
4.585048120E-1,-6.296750307E-1,9.921571732E0,-6.045359373E-2,9.941716698E0
4.634725720E-1,-6.200982332E-1,9.926360130E0,-6.045359373E-2,9.945893720E0
4.684403330E-1,-6.153098345E-1,9.926360130E0,-6.524199992E-2,9.945626584E0
4.734080930E-1,-6.009446383E-1,9.902418137E0,-6.524199992E-2,9.920850565E0
4.783758530E-1,-5.817909837E-1,9.911994934E0,-5.566519126E-2,9.929210590E0
4.833436140E-1,-5.434837937E-1,9.911994934E0,-4.129998013E-2,9.926969522E0
4.883113740E-1,-5.243301988E-1,9.902418137E0,-3.651157767E-2,9.916357204E0
4.932791350E-1,-4.955997467E-1,9.902418137E0,-3.651157767E-2,9.914879584E0
4.982468950E-1,-4.620809257E-1,9.902418137E0,-2.214636654E-2,9.913218155E0
5.032146560E-1,-4.094084799E-1,9.883264542E0,-2.992752008E-3,9.891741114E0
5.081824160E-1,-3.615244627E-1,9.888052940E0,1.137245819E-2,9.894666251E0
5.131501760E-1,-3.136404157E-1,9.892841339E0,2.573766746E-2,9.897845346E0
5.181179370E-1,-2.705447972E-1,9.878476143E0,4.010287672E-2,9.882261565E0
5.230856970E-1,-2.035071403E-1,9.864110947E0,5.925649032E-2,9.866387954E0
5.280534580E-1,-1.460463107E-1,9.854534149E0,6.883329898E-2,9.855856677E0
5.330212180E-1,-9.337386489E-2,9.840168953E0,8.319851011E-2,9.840963657E0
5.379889780E-1,-3.112462163E-2,9.821015358E0,1.071405262E-1,9.821649072E0
5.429567390E-1,3.112462163E-2,9.816226959E0,1.310825497E-1,9.817151475E0
5.479244990E-1,9.337386489E-2,9.801861763E0,1.454477459E-1,9.803385525E0
5.528922600E-1,1.556231081E-1,9.768342972E0,1.693897694E-1,9.771050909E0
5.578600200E-1,2.178723514E-1,9.768342972E0,1.885433793E-1,9.772591334E0
5.628277810E-1,2.849099934E-1,9.739612579E0,2.172738016E-1,9.746201045E0
5.677955410E-1,3.280056417E-1,9.706093788E0,2.316390127E-1,9.714396582E0
5.727633010E-1,3.902548850E-1,9.691728592E0,2.460042238E-1,9.702701688E0
5.777310620E-1,4.285621047E-1,9.658209801E0,2.651578486E-1,9.671348961E0
5.826988220E-1,4.860229492E-1,9.639056206E0,2.795230448E-1,9.655348568E0
5.876665830E-1,5.243301988E-1,9.605537415E0,2.986766696E-1,9.624472917E0
5.926343430E-1,5.626373887E-1,9.591172218E0,3.130418658E-1,9.612759259E0
5.976021030E-1,5.913678408E-1,9.567230225E0,3.321954906E-1,9.591244129E0
6.025698640E-1,6.296750307E-1,9.557653427E0,3.513490856E-1,9.584814858E0
6.075376240E-1,6.536170840E-1,9.524134636E0,3.561375141E-1,9.553176947E0
6.125053850E-1,6.727706790E-1,9.514557838E0,3.752911091E-1,9.545694038E0
6.174731450E-1,6.919242740E-1,9.509769440E0,3.896563351E-1,9.542866763E0
6.224409060E-1,7.062895298E-1,9.514557838E0,3.896563351E-1,9.548690372E0
6.274086660E-1,7.015010715E-1,9.495404243E0,3.896563351E-1,9.529251679E0
6.323764260E-1,6.967126727E-1,9.504981041E0,3.848679364E-1,9.538249130E0
6.373441870E-1,7.015010715E-1,9.504981041E0,3.848679364E-1,9.538600090E0
6.423119470E-1,6.775590777E-1,9.524134636E0,3.896563351E-1,9.556152935E0
6.472797080E-1,6.679822803E-1,9.538499832E0,3.992331326E-1,9.570191559E0
6.522474680E-1,6.296750307E-1,9.548076630E0,3.848679364E-1,9.576553728E0
6.572152280E-1,6.105214357E-1,9.572018623E0,3.800795078E-1,9.598996686E0
6.621829890E-1,5.865794420E-1,9.600749016E0,3.657143116E-1,9.625601491E0
6.671507490E-1,5.434837937E-1,9.629479408E0,3.561375141E-1,9.651377220E0
6.721185100E-1,4.955997467E-1,9.648633003E0,3.513490856E-1,9.667739349E0
6.770862700E-1,4.477157295E-1,9.672574997E0,3.369838893E-1,9.688793247E0
6.820540310E-1,3.998316824E-1,9.715670586E0,3.130418658E-1,9.728931879E0
6.870217910E-1,3.615244627E-1,9.734824181E0,2.890998423E-1,9.745823746E0
6.919895510E-1,2.992752194E-1,9.763554573E0,2.747346461E-1,9.772003003E0
6.969573120E-1,2.513911724E-1,9.787496567E0,2.555810213E-1,9.794059844E0
7.019250720E-1,1.795651317E-1,9.811438560E0,2.316390127E-1,9.815815142E0
7.068928330E-1,1.316810995E-1,9.840168953E0,2.124854028E-1,9.843343689E0
7.118605930E-1,7.900865376E-2,9.878476143E0,1.981201917E-1,9.880778557E0
7.168283530E-1,1.197100803E-2,9.897629738E0,1.646013707E-1,9.899005573E0
7.217961140E-1,-5.506663769E-2,9.907206535E0,1.454477459E-1,9.908427156E0
7.267638740E-1,-1.173158810E-1,9.916783333E0,1.215057373E-1,9.918221531E0
7.317316350E-1,-1.604115069E-1,9.950302124E0,1.023521200E-1,9.952121390E0
7.366993950E-1,-2.226607651E-1,9.969455719E0,7.362170517E-2,9.972213661E0
7.416671560E-1,-2.705447972E-1,9.959878922E0,5.925649032E-2,9.963728918E0
7.466349160E-1,-3.280056417E-1,9.979032516E0,4.967968538E-2,9.984545345E0
7.516026760E-1,-3.854664862E-1,9.983820915E0,2.094926499E-2,9.991281367E0
7.565704370E-1,-4.141969085E-1,9.993397713E0,1.137245819E-2,1.000198412E1
7.615381970E-1,-4.620809257E-1,9.979032516E0,-7.781155407E-3,9.989728189E0
7.665059580E-1,-4.860229492E-1,1.000297451E1,-1.735796221E-2,1.001479000E1
7.714737180E-1,-5.243301988E-1,9.998186111E0,-2.693476900E-2,1.001196150E1
7.764414780E-1,-5.578489900E-1,9.993397713E0,-2.693476900E-2,1.000899190E1
7.814092390E-1,-5.626373887E-1,1.000297451E1,-3.651157767E-2,1.001885188E1
7.863769990E-1,-5.817909837E-1,1.000297451E1,-4.129998013E-2,1.001996435E1
7.913447600E-1,-5.913678408E-1,9.993397713E0,-4.608838260E-2,1.001098586E1
7.963125200E-1,-6.057330370E-1,9.993397713E0,-3.651157767E-2,1.001180520E1
8.012802810E-1,-6.009446383E-1,9.998186111E0,-3.651157767E-2,1.001629638E1
8.062480410E-1,-6.009446383E-1,9.998186111E0,-3.651157767E-2,1.001629638E1
8.112158010E-1,-5.913678408E-1,1.001255131E1,-3.172317147E-2,1.003005015E1
8.161835620E-1,-5.674257874E-1,9.993397713E0,-1.256955881E-2,1.000950188E1
8.211513220E-1,-5.482721925E-1,1.001255131E1,1.795651275E-3,1.002755151E1
8.261190830E-1,-5.195417404E-1,9.998186111E0,6.584054790E-3,1.001167781E1
8.310868430E-1,-4.908113480E-1,9.998186111E0,1.616086066E-2,1.001023888E1
8.360546030E-1,-4.572925270E-1,9.998186111E0,4.010287672E-2,1.000871871E1
8.410223640E-1,-4.141969085E-1,1.000297451E1,4.967968538E-2,1.001166950E1
8.459901240E-1,-3.806780577E-1,9.993397713E0,7.841010392E-2,1.000095304E1
8.509578850E-1,-3.280056417E-1,9.988609314E0,8.319851011E-2,9.994339684E0
8.559256450E-1,-2.753331959E-1,9.979032516E0,1.119289324E-1,9.983457638E0
8.608934060E-1,-2.274491638E-1,9.974244118E0,1.310825497E-1,9.977698205E0
8.658611660E-1,-1.651999205E-1,9.974244118E0,1.454477459E-1,9.976672380E0
8.708289260E-1,-1.077390760E-1,9.945513725E0,1.598129570E-1,9.947381120E0
8.757966870E-1,-4.070143029E-2,9.940725327E0,1.837549806E-1,9.942506853E0
8.807644470E-1,2.154781483E-2,9.926360130E0,1.981201917E-1,9.928360457E0
8.857322080E-1,8.858546615E-2,9.911994934E0,2.124854028E-1,9.914667972E0
8.906999680E-1,1.460463107E-1,9.883264542E0,2.412158251E-1,9.887286412E0
8.956677280E-1,1.987187415E-1,9.873687744E0,2.555810213E-1,9.878993899E0
9.006354890E-1,2.849099934E-1,9.849745750E0,2.795230448E-1,9.857829284E0
9.056032490E-1,3.327940404E-1,9.821015358E0,2.890998423E-1,9.830903990E0
9.105710100E-1,3.854664862E-1,9.797073364E0,2.938882709E-1,9.809057102E0
9.155387700E-1,4.477157295E-1,9.782708168E0,3.130418658E-1,9.797949974E0
9.205065310E-1,5.051765442E-1,9.753977776E0,3.321954906E-1,9.772698687E0
9.254742910E-1,5.386953950E-1,9.730035782E0,3.417722881E-1,9.750928025E0
9.304420510E-1,5.865794420E-1,9.696516991E0,3.513490856E-1,9.720594805E0
9.354098120E-1,6.248866320E-1,9.677363396E0,3.513490856E-1,9.703880243E0
9.403775720E-1,6.536170840E-1,9.653421402E0,3.657143116E-1,9.682432908E0
9.453453330E-1,6.871358752E-1,9.639056206E0,3.657143116E-1,9.670434696E0
9.503130930E-1,7.110779285E-1,9.619902611E0,3.752911091E-1,9.653445057E0
9.552808530E-1,7.254431248E-1,9.600749016E0,3.896563351E-1,9.635999245E0
9.602486140E-1,7.445967197E-1,9.605537415E0,3.657143116E-1,9.641292458E0
9.652163740E-1,7.493851185E-1,9.605537415E0,3.944447339E-1,9.642795950E0
9.701841350E-1,7.445967197E-1,9.600749016E0,3.848679364E-1,9.637267728E0
9.751518950E-1,7.493851185E-1,9.591172218E0,3.848679364E-1,9.628098769E0
9.801196560E-1,7.350199223E-1,9.595960617E0,3.848679364E-1,9.631761925E0
9.850874160E-1,7.158663273E-1,9.610325813E0,3.657143116E-1,9.643887898E0
9.900551760E-1,7.062895298E-1,9.629479408E0,3.657143116E-1,9.662270206E0
9.950229370E-1,6.727706790E-1,9.648633003E0,3.609259129E-1,9.678791595E0
9.999906970E-1,6.440402865E-1,9.658209801E0,3.513490856E-1,9.686033792E0
1.004958458E0,6.153098345E-1,9.682151794E0,3.465606868E-1,9.707871748E0
1.009926218E0,5.817909837E-1,9.710882187E0,3.369838893E-1,9.734129223E0
1.014893978E0,5.243301988E-1,9.734824181E0,3.226186931E-1,9.754271208E0
1.019861739E0,4.812345505E-1,9.773131371E0,3.178302646E-1,9.790132765E0
1.024829499E0,4.285621047E-1,9.792284966E0,3.034650683E-1,9.806355152E0
1.029797260E0,3.806780577E-1,9.825803757E0,2.890998423E-1,9.837424153E0
1.034765020E0,3.184288144E-1,9.849745750E0,2.651578486E-1,9.858458142E0
1.039732781E0,2.705447972E-1,9.878476143E0,2.460042238E-1,9.885241700E0
1.044700593E0,2.130839527E-1,9.883264542E0,2.316390127E-1,9.888274845E0
1.049668406E0,1.460463107E-1,9.916783333E0,2.172738016E-1,9.920238359E0
1.054636218E0,8.858546615E-2,9.955090523E0,1.933317930E-1,9.957361693E0
1.059604031E0,1.675941236E-2,9.950302124E0,1.741781682E-1,9.951840597E0
1.064571843E0,-3.591302410E-2,9.974244118E0,1.598129570E-1,9.975588987E0
1.069539656E0,-8.858546615E-2,9.983820915E0,1.406593472E-1,9.985204680E0
1.074507468E0,-1.508347094E-1,9.998186111E0,1.310825497E-1,1.000018296E1
1.079475281E0,-2.035071403E-1,1.000776291E1,1.023521200E-1,1.001035512E1
1.084443093E0,-2.513911724E-1,1.002212811E1,9.756372124E-2,1.002575523E1
1.089410906E0,-3.088520169E-1,1.001255131E1,7.841010392E-2,1.001762055E1
1.094378718E0,-3.471592367E-1,1.001733971E1,7.841010392E-2,1.002366013E1
1.099346531E0,-3.902548850E-1,1.002212811E1,6.883329898E-2,1.002995955E1
1.104314343E0,-4.189853072E-1,1.001733971E1,4.967968538E-2,1.002622120E1
1.109282156E0,-4.429273009E-1,1.002212811E1,4.967968538E-2,1.003203391E1
1.114249968E0,-4.860229492E-1,1.001255131E1,3.531447425E-2,1.002440268E1
1.119217781E0,-5.003881454E-1,1.000776291E1,2.094926499E-2,1.002028670E1
1.124185593E0,-5.291185975E-1,1.000776291E1,2.573766746E-2,1.002177366E1
1.129153406E0,-5.291185975E-1,9.998186111E0,1.616086066E-2,1.001219023E1
1.134121218E0,-5.386953950E-1,9.998186111E0,2.094926499E-2,1.001270978E1
1.139089031E0,-5.386953950E-1,1.000297451E1,2.573766746E-2,1.001750239E1
1.144056843E0,-5.386953950E-1,9.988609314E0,3.052607179E-2,1.000317153E1
1.149024656E0,-5.291185975E-1,9.983820915E0,3.052607179E-2,9.997878695E0
1.153992468E0,-5.099649429E-1,9.988609314E0,3.531447425E-2,1.000168123E1
1.158960281E0,-4.908113480E-1,9.988609314E0,4.489128292E-2,1.000076132E1
1.163928093E0,-4.716577232E-1,9.983820915E0,4.967968538E-2,9.995079247E0
1.168895906E0,-4.381389022E-1,9.974244118E0,4.489128292E-2,9.983963474E0
1.173863718E0,-3.998316824E-1,9.974244118E0,6.883329898E-2,9.982492130E0
1.178831531E0,-3.615244627E-1,9.959878922E0,7.841010392E-2,9.966746521E0
1.183799291E0,-3.184288144E-1,9.955090523E0,8.798690885E-2,9.960570562E0
1.188767051E0,-2.753331959E-1,9.950302124E0,9.756372124E-2,9.954588862E0
1.193734812E0,-2.226607651E-1,9.940725327E0,1.071405262E-1,9.943795901E0
1.198702572E0,-1.795651317E-1,9.926360130E0,1.167173311E-1,9.928670203E0
1.203670333E0,-1.173158810E-1,9.916783333E0,1.358709484E-1,9.918407917E0
1.208638093E0,-5.985504389E-2,9.902418137E0,1.406593472E-1,9.903597964E0
1.213605853E0,2.394201700E-3,9.888052940E0,1.550245583E-1,9.889268390E0
1.218573614E0,5.985504389E-2,9.868899345E0,1.550245583E-1,9.870298351E0
1.223541374E0,1.221042871E-1,9.840168953E0,1.741781682E-1,9.842467806E0
1.228509135E0,1.891419291E-1,9.816226959E0,1.789665818E-1,9.819680006E0
1.233476895E0,2.561795712E-1,9.797073364E0,1.981201917E-1,9.802424500E0
1.238444656E0,3.184288144E-1,9.768342972E0,1.933317930E-1,9.775443648E0
1.243412416E0,3.758896589E-1,9.744400978E0,2.029085904E-1,9.753759037E0
1.248380176E0,4.381389022E-1,9.725247383E0,2.029085904E-1,9.737226210E0
1.253347937E0,4.955997467E-1,9.696516991E0,2.076970041E-1,9.711395312E0
1.258315697E0,5.339069963E-1,9.658209801E0,2.220622003E-1,9.675504372E0
1.263283458E0,5.961562395E-1,9.643844604E0,2.076970041E-1,9.664485453E0
1.268251218E0,6.344634295E-1,9.610325813E0,2.172738016E-1,9.633696797E0
1.273218978E0,6.679822803E-1,9.591172218E0,2.268506140E-1,9.617080953E0
1.278186739E0,7.158663273E-1,9.567230225E0,2.124854028E-1,9.596327882E0
1.283154499E0,7.445967197E-1,9.543288231E0,2.220622003E-1,9.574867422E0
1.288122260E0,7.637503147E-1,9.504981041E0,2.220622003E-1,9.538201652E0
1.293090020E0,7.972691655E-1,9.504981041E0,2.220622003E-1,9.540944101E0
1.298057781E0,8.068459630E-1,9.481039047E0,2.172738016E-1,9.517789120E0
1.303025541E0,8.068459630E-1,9.481039047E0,2.172738016E-1,9.517789120E0
1.307993301E0,8.212111592E-1,9.471462250E0,2.172738016E-1,9.509479104E0
1.312961062E0,8.164227605E-1,9.466673851E0,2.076970041E-1,9.504083226E0
1.317928822E0,8.068459630E-1,9.476250648E0,2.029085904E-1,9.512701964E0
1.322896583E0,8.020575643E-1,9.476250648E0,1.981201917E-1,9.512196082E0
1.327864343E0,7.876923680E-1,9.476250648E0,2.029085904E-1,9.511096546E0
1.332832103E0,7.637503147E-1,9.495404243E0,2.029085904E-1,9.528231115E0
1.337799864E0,7.445967197E-1,9.504981041E0,1.933317930E-1,9.536061349E0
1.342767624E0,7.015010715E-1,9.528923035E0,1.837549806E-1,9.556476539E0
1.347735385E0,6.631938815E-1,9.548076630E0,1.837549806E-1,9.572844893E0
1.352703145E0,6.296750307E-1,9.576807022E0,1.885433793E-1,9.599337060E0
1.357670906E0,5.722141862E-1,9.600749016E0,1.789665818E-1,9.619451116E0
1.362638666E0,5.339069963E-1,9.629479408E0,1.789665818E-1,9.645929680E0
